wavelength (nm),White 1
0.400884766,0.318138
0.405888672,0.357261
0.410896851,0.384949
0.415909332,0.405235
0.42092614700000003,0.417166
0.425947266,0.427209
0.430972687,0.439125
0.436002411,0.45121
0.441036438,0.458286
0.44607479899999997,0.466475
0.451117432,0.471952
0.456164398,0.479263
0.46121566799999997,0.485115
0.46627124,0.490065
0.471331116,0.493529
0.47639532500000004,0.496769
0.481463806,0.500862
0.486536621,0.503247
0.491613739,0.50718
0.49669515999999997,0.510216
0.501780914,0.514162
0.506870941,0.515975
0.511965302,0.518189
0.5170639650000001,0.521061
0.522166931,0.522404
0.52727417,0.525937
0.532385742,0.529254
0.537501648,0.530251
0.5426218260000001,0.531868
0.547746338,0.535705
0.552875183,0.539485
0.558008301,0.542875
0.563145691,0.547254
0.568287415,0.551706
0.573433472,0.556054
0.578583862,0.562614
0.583738525,0.56824
0.5888974610000001,0.574994
0.59406073,0.584607
0.599228333,0.594369
0.604400208,0.603859
0.609576416,0.609202
0.6147569580000001,0.613188
0.619941772,0.616486
0.625130859,0.615846
0.6303242800000001,0.617482
0.635522034,0.616724
0.64072406,0.617795
0.64593042,0.618473
0.651141113,0.616983
0.656356079,0.618048
0.661575378,0.619294
0.66679895,0.620878
0.6720268549999999,0.622661
0.677259033,0.626394
0.682495544,0.629613
0.687736389,0.634845
0.692981506,0.64168
0.698230957,0.646642
0.70348468,0.654829
0.708742737,0.660271
0.714005127,0.668317
0.71927179,0.673468
0.724542725,0.678968
0.729818054,0.685806
0.7350975949999999,0.689845
0.740381531,0.690607
0.745669739,0.692633
0.750962219,0.699114
0.756259094,0.702139
0.761560181,0.702899
0.7668656620000001,0.705002
0.7721754150000001,0.702928
0.7774894410000001,0.703319
0.7828078,0.70604
0.788130493,0.704975
0.793457458,0.703849
0.7987887570000001,0.710557
0.804124329,0.709239
0.809464233,0.709506
0.8148084720000001,0.711769
0.820156982,0.713252
0.825509827,0.713613
0.830866943,0.71827
0.8362283939999999,0.714716
0.841594116,0.717554
0.846964172,0.718669
0.852338562,0.716524
0.857717224,0.720063
0.8631002200000001,0.720816
0.8684875489999999,0.720545
0.8738791499999999,0.723167
0.879275024,0.718534
0.8846752320000001,0.719439
0.8900797730000001,0.725227
0.895488586,0.720831
0.900901733,0.723154
0.906319214,0.722566
0.911740967,0.724086
0.9171669920000001,0.72342
0.922597351,0.722542
0.9280320430000001,0.722742
0.9334710690000001,0.724026
0.9389143679999999,0.717369
0.944361938,0.717013
0.949813843,0.722076
0.955270081,0.727324
0.960730591,0.722335
0.9661954349999999,0.722897
0.971664612,0.724296
0.977138062,0.723187
0.9826157839999999,0.713677
0.988097839,0.726867
0.9935842290000001,0.712155
0.9990749510000001,0.718901
1.004859985,0.744391
1.010460022,0.744654
1.016059998,0.745294
1.021659973,0.747488
1.02725,0.748367
1.032849976,0.749021
1.038449951,0.750063
1.044050049,0.751184
1.049640015,0.752538
1.05523999,0.753754
1.060829956,0.755038
1.066420044,0.75557
1.07201001,0.7567470000000001
1.077609985,0.757157
1.083199951,0.757727
1.088790039,0.758977
1.094369995,0.759981
1.099959961,0.760995
1.1055500489999999,0.761601
1.111140015,0.762883
1.116719971,0.7636
1.122310059,0.764385
1.127890015,0.764211
1.1334799800000002,0.765087
1.139060059,0.764996
1.144640015,0.764759
1.150219971,0.764892
1.155800049,0.7643439999999999
1.161390015,0.7640859999999999
1.166959961,0.763135
1.172540039,0.76363
1.178119995,0.764077
1.1836999510000001,0.763811
1.189280029,0.763803
1.194849976,0.764504
1.200430054,0.7651180000000001
1.206,0.765245
1.211579956,0.766383
1.217150024,0.7669630000000001
1.222719971,0.7676850000000001
1.228290039,0.769105
1.233869995,0.770285
1.239439941,0.7711680000000001
1.24501001,0.772544
1.250579956,0.773307
1.256150024,0.773559
1.261709961,0.774612
1.267280029,0.775274
1.272849976,0.7756460000000001
1.278410034,0.776093
1.28397998,0.776521
1.289550049,0.777798
1.295109985,0.777805
1.3006700439999999,0.778817
1.3062399900000001,0.7799729999999999
1.311800049,0.7805770000000001
1.317359985,0.7811100000000001
1.322920044,0.781547
1.32848999,0.781842
1.334050049,0.782116
1.339609985,0.7814760000000001
1.345160034,0.781277
1.350719971,0.780233
1.356280029,0.77903
1.361839966,0.776419
1.367400024,0.774543
1.372949951,0.773796
1.37851001,0.7756270000000001
1.384069946,0.7741399999999999
1.389619995,0.773877
1.3951700439999999,0.7728520000000001
1.4007299800000002,0.770494
1.406280029,0.767165
1.411839966,0.7650859999999999
1.417390015,0.761491
1.422939941,0.7597659999999999
1.42848999,0.757197
1.4340400389999999,0.75488
1.439589966,0.755141
1.445140015,0.75416
1.450689941,0.753127
1.45623999,0.754369
1.461790039,0.755514
1.467339966,0.75572
1.472890015,0.756523
1.478430054,0.758947
1.48397998,0.7588159999999999
1.489530029,0.7590439999999999
1.495069946,0.758085
1.500619995,0.758912
1.506160034,0.758907
1.511709961,0.760919
1.51725,0.7624850000000001
1.522800049,0.7609020000000001
1.528339966,0.761925
1.5338800049999999,0.764718
1.5394200439999999,0.7640060000000001
1.544969971,0.766467
1.55051001,0.7670710000000001
1.556050049,0.76995
1.561589966,0.769025
1.5671300049999999,0.773967
1.5726700439999999,0.773831
1.578209961,0.775122
1.58375,0.7752760000000001
1.589290039,0.777791
1.594829956,0.776939
1.600369995,0.778274
1.605910034,0.780714
1.611439941,0.782713
1.61697998,0.782486
1.6225200199999998,0.783895
1.628050049,0.78258
1.633589966,0.7838729999999999
1.639130005,0.7815979999999999
1.644660034,0.781216
1.650199951,0.7807430000000001
1.65572998,0.781551
1.66127002,0.779075
1.666800049,0.776856
1.672339966,0.772501
1.677869995,0.768552
1.683400024,0.763335
1.6889399410000001,0.758972
1.694469971,0.753905
1.7,0.7519100000000001
1.705540039,0.749347
1.711069946,0.748733
1.716599976,0.7472770000000001
1.722130005,0.744071
1.727660034,0.739873
1.733189941,0.738295
1.73872998,0.735822
1.7442600099999999,0.736207
1.749790039,0.73515
1.755319946,0.735762
1.760849976,0.7355510000000001
1.766380005,0.736011
1.771910034,0.737564
1.7774399410000001,0.738835
1.782959961,0.7379939999999999
1.78848999,0.737958
1.7940200199999998,0.7370369999999999
1.799550049,0.737164
1.805079956,0.736591
1.8106099850000001,0.736613
1.816140015,0.735734
1.821660034,0.735118
1.827189941,0.733993
1.832719971,0.734003
1.83825,0.732544
1.84377002,0.7320979999999999
1.849300049,0.7326
1.8548299560000001,0.73329
1.860349976,0.732965
1.865880005,0.732079
1.871410034,0.72905
1.876930054,0.7233069999999999
1.8824599610000001,0.720093
1.8879899900000001,0.715332
1.89351001,0.7051569999999999
1.899040039,0.6928380000000001
1.9045600589999998,0.6766300000000001
1.910089966,0.661511
1.9156099850000001,0.6485529999999999
1.921140015,0.637548
1.926670044,0.6288189999999999
1.932189941,0.623526
1.937719971,0.618472
1.9432399900000001,0.6171439999999999
1.94877002,0.617306
1.954290039,0.618853
1.959819946,0.6210829999999999
1.965339966,0.623512
1.970869995,0.627437
1.976390015,0.630641
1.981920044,0.633716
1.987439941,0.636844
1.992959961,0.6416470000000001
1.99848999,0.645704
2.00401001,0.6477430000000001
2.009540039,0.651544
2.015060059,0.653975
2.020589966,0.655086
2.026109985,0.6548229999999999
2.031640015,0.654674
2.037160034,0.652412
2.042689941,0.6501560000000001
2.048209961,0.646878
2.05372998,0.644824
2.05926001,0.64469
2.064780029,0.646254
2.070310059,0.648962
2.075830078,0.653672
2.081360107,0.657261
2.086879883,0.6613859999999999
2.092409912,0.6637149999999999
2.097929932,0.665504
2.103459961,0.666127
2.10897998,0.6658029999999999
2.11451001,0.665153
2.120030029,0.665852
2.125560059,0.666143
2.131080078,0.6649609999999999
2.136610107,0.662944
2.142129883,0.659369
2.147659912,0.65399
2.153179932,0.647935
2.158709961,0.6421720000000001
2.16422998,0.636813
2.16976001,0.630239
2.175280029,0.624363
2.1808100589999997,0.620884
2.186340088,0.6183310000000001
2.191860107,0.615306
2.197389893,0.613172
2.202919922,0.6104970000000001
2.208439941,0.6110220000000001
2.213969971,0.609928
2.2195,0.610325
2.22502002,0.613067
2.230550049,0.615386
2.236080078,0.615862
2.241610107,0.616066
2.247129883,0.611838
2.252659912,0.606813
2.258189941,0.5989949999999999
2.263719971,0.5938899999999999
2.26925,0.588743
2.27477002,0.586056
2.280300049,0.5836020000000001
2.285830078,0.580122
2.291360107,0.577144
2.296889893,0.575381
2.302419922,0.576403
2.307949951,0.578024
2.31347998,0.5790609999999999
2.31901001,0.580579
2.324540039,0.581833
2.330070068,0.581675
2.335600098,0.58136
2.3411298830000002,0.58065
2.3466699220000002,0.5808770000000001
2.3521999510000002,0.582741
2.3577299800000002,0.584708
2.36326001,0.589933
2.368790039,0.592713
2.374330078,0.594068
2.379860107,0.595042
2.385389893,0.594427
2.390929932,0.5957399999999999
2.396459961,0.59687
2.40198999,0.595608
2.407530029,0.59526
2.4130600589999998,0.593356
2.4186000979999998,0.591603
2.424129883,0.589071
2.429669922,0.585959
2.435209961,0.5819439999999999
2.44073999,0.576729
2.446280029,0.570284
2.451820068,0.565066
2.457350098,0.55821
2.462889893,0.552796
2.468429932,0.5458970000000001
2.473969971,0.5398310000000001
2.47951001,0.53475
2.485050049,0.529273
2.490590088,0.5257229999999999
2.496129883,0.522475
2.501669922,0.519247